# OpenSignals Text File Format. Version 1
# {'84:BA:20:5E:FF:58': {'position': 0, 'device': 'bitalino_rev', 'device name': '84:BA:20:5E:FF:58', 'device connection': 'BTH84:BA:20:5E:FF:58', 'sampling rate': 100, 'resolution': [4, 1, 1, 1, 1, 10], 'firmware version': 1282, 'comments': 'Simulated data for horror movie reaction', 'keywords': 'ECG, horror, reaction', 'mode': 0, 'sync interval': 2, 'date': '2024-5-10', 'time': '18:14:4.986', 'channels': [2], 'sensor': ['ECGBIT'], 'label': ['A2'], 'column': ['nSeq', 'I1', 'I2', 'O1', 'O2', 'A2'], 'special': [{}], 'digital IO': [0, 0, 1, 1]}}
# EndOfHeader
0	0	0	0	0	500
1	0	0	0	0	501
2	0	0	0	0	503
3	0	0	0	0	504
4	0	0	0	0	506
5	0	0	0	0	507
6	0	0	0	0	509
7	0	0	0	0	510
8	0	0	0	0	512
9	0	0	0	0	513
10	0	0	0	0	514
11	0	0	0	0	516
12	0	0	0	0	517
13	0	0	0	0	518
14	0	0	0	0	519
15	0	0	0	0	520
16	0	0	0	0	521
17	0	0	0	0	522
18	0	0	0	0	522
19	0	0	0	0	523
20	0	0	0	0	523
21	0	0	0	0	524
22	0	0	0	0	524
23	0	0	0	0	524
24	0	0	0	0	524
25	0	0	0	0	524
26	0	0	0	0	524
27	0	0	0	0	524
28	0	0	0	0	524
29	0	0	0	0	524
30	0	0	0	0	523
31	0	0	0	0	522
32	0	0	0	0	522
33	0	0	0	0	521
34	0	0	0	0	520
35	0	0	0	0	519
36	0	0	0	0	518
37	0	0	0	0	517
38	0	0	0	0	516
39	0	0	0	0	515
40	0	0	0	0	513
41	0	0	0	0	512
42	0	0	0	0	511
43	0	0	0	0	509
44	0	0	0	0	508
45	0	0	0	0	506
46	0	0	0	0	504
47	0	0	0	0	503
48	0	0	0	0	501
49	0	0	0	0	500
50	0	0	0	0	498
51	0	0	0	0	497
52	0	0	0	0	495
53	0	0	0	0	493
54	0	0	0	0	492
55	0	0	0	0	490
56	0	0	0	0	489
57	0	0	0	0	487
58	0	0	0	0	486
59	0	0	0	0	485
60	0	0	0	0	483
61	0	0	0	0	482
62	0	0	0	0	481
63	0	0	0	0	480
64	0	0	0	0	479
65	0	0	0	0	478
66	0	0	0	0	477
67	0	0	0	0	477
68	0	0	0	0	476
69	0	0	0	0	476
70	0	0	0	0	475
71	0	0	0	0	475
72	0	0	0	0	475
73	0	0	0	0	475
74	0	0	0	0	475
75	0	0	0	0	475
76	0	0	0	0	475
77	0	0	0	0	475
78	0	0	0	0	475
79	0	0	0	0	476
80	0	0	0	0	477
81	0	0	0	0	477
82	0	0	0	0	478
83	0	0	0	0	479
84	0	0	0	0	480
85	0	0	0	0	481
86	0	0	0	0	482
87	0	0	0	0	483
88	0	0	0	0	484
89	0	0	0	0	486
90	0	0	0	0	487
91	0	0	0	0	488
92	0	0	0	0	490
93	0	0	0	0	491
94	0	0	0	0	493
95	0	0	0	0	494
96	0	0	0	0	496
97	0	0	0	0	497
98	0	0	0	0	499
99	0	0	0	0	501
100	0	0	0	0	502
101	0	0	0	0	504
102	0	0	0	0	505
103	0	0	0	0	507
104	0	0	0	0	508
105	0	0	0	0	510
106	0	0	0	0	511
107	0	0	0	0	513
108	0	0	0	0	514
109	0	0	0	0	515
110	0	0	0	0	517
111	0	0	0	0	518
112	0	0	0	0	519
113	0	0	0	0	520
114	0	0	0	0	521
115	0	0	0	0	521
116	0	0	0	0	522
117	0	0	0	0	523
118	0	0	0	0	523
119	0	0	0	0	524
120	0	0	0	0	524
121	0	0	0	0	524
122	0	0	0	0	524
123	0	0	0	0	524
124	0	0	0	0	524
125	0	0	0	0	524
126	0	0	0	0	524
127	0	0	0	0	524
128	0	0	0	0	523
129	0	0	0	0	523
130	0	0	0	0	522
131	0	0	0	0	521
132	0	0	0	0	520
133	0	0	0	0	519
134	0	0	0	0	518
135	0	0	0	0	517
136	0	0	0	0	516
137	0	0	0	0	515
138	0	0	0	0	514
139	0	0	0	0	512
140	0	0	0	0	511
141	0	0	0	0	509
142	0	0	0	0	508
143	0	0	0	0	506
144	0	0	0	0	505
145	0	0	0	0	503
146	0	0	0	0	502
147	0	0	0	0	500
148	0	0	0	0	499
149	0	0	0	0	497
150	0	0	0	0	495
151	0	0	0	0	494
152	0	0	0	0	492
153	0	0	0	0	491
154	0	0	0	0	489
155	0	0	0	0	488
156	0	0	0	0	486
157	0	0	0	0	485
158	0	0	0	0	484
159	0	0	0	0	483
160	0	0	0	0	481
161	0	0	0	0	480
162	0	0	0	0	479
163	0	0	0	0	478
164	0	0	0	0	478
165	0	0	0	0	477
166	0	0	0	0	476
167	0	0	0	0	476
168	0	0	0	0	475
169	0	0	0	0	475
170	0	0	0	0	449
171	0	0	0	0	471
172	0	0	0	0	467
173	0	0	0	0	483
174	0	0	0	0	494
175	0	0	0	0	479
176	0	0	0	0	481
177	0	0	0	0	499
178	0	0	0	0	479
179	0	0	0	0	472
180	0	0	0	0	489
181	0	0	0	0	474
182	0	0	0	0	473
183	0	0	0	0	502
184	0	0	0	0	477
185	0	0	0	0	438
186	0	0	0	0	490
187	0	0	0	0	479
188	0	0	0	0	482
189	0	0	0	0	496
190	0	0	0	0	487
191	0	0	0	0	494
192	0	0	0	0	458
193	0	0	0	0	478
194	0	0	0	0	519
195	0	0	0	0	497
196	0	0	0	0	470
197	0	0	0	0	482
198	0	0	0	0	485
199	0	0	0	0	505
200	0	0	0	0	498
201	0	0	0	0	495
202	0	0	0	0	508
203	0	0	0	0	518
204	0	0	0	0	507
205	0	0	0	0	503
206	0	0	0	0	507
207	0	0	0	0	521
208	0	0	0	0	516
209	0	0	0	0	517
210	0	0	0	0	518
211	0	0	0	0	519
212	0	0	0	0	520
213	0	0	0	0	521
214	0	0	0	0	522
215	0	0	0	0	523
216	0	0	0	0	523
217	0	0	0	0	524
218	0	0	0	0	524
219	0	0	0	0	524
220	0	0	0	0	524
221	0	0	0	0	524
222	0	0	0	0	524
223	0	0	0	0	524
224	0	0	0	0	524
225	0	0	0	0	544
226	0	0	0	0	517
227	0	0	0	0	591
228	0	0	0	0	538
229	0	0	0	0	500
230	0	0	0	0	494
231	0	0	0	0	532
232	0	0	0	0	513
233	0	0	0	0	536
234	0	0	0	0	528
235	0	0	0	0	513
236	0	0	0	0	493
237	0	0	0	0	475
238	0	0	0	0	500
239	0	0	0	0	531
240	0	0	0	0	514
241	0	0	0	0	476
242	0	0	0	0	510
243	0	0	0	0	513
244	0	0	0	0	480
245	0	0	0	0	504
246	0	0	0	0	500
247	0	0	0	0	469
248	0	0	0	0	505
249	0	0	0	0	508
250	0	0	0	0	520
251	0	0	0	0	518
252	0	0	0	0	455
253	0	0	0	0	465
254	0	0	0	0	500
255	0	0	0	0	485
256	0	0	0	0	484
257	0	0	0	0	483
258	0	0	0	0	482
259	0	0	0	0	481
260	0	0	0	0	480
261	0	0	0	0	479
262	0	0	0	0	478
263	0	0	0	0	477
264	0	0	0	0	476
265	0	0	0	0	476
266	0	0	0	0	475
267	0	0	0	0	475
268	0	0	0	0	475
269	0	0	0	0	475
270	0	0	0	0	475
271	0	0	0	0	475
272	0	0	0	0	475
273	0	0	0	0	475
274	0	0	0	0	475
275	0	0	0	0	476
276	0	0	0	0	476
277	0	0	0	0	477
278	0	0	0	0	478
279	0	0	0	0	478
280	0	0	0	0	479
281	0	0	0	0	480
282	0	0	0	0	481
283	0	0	0	0	482
284	0	0	0	0	484
285	0	0	0	0	485
286	0	0	0	0	486
287	0	0	0	0	488
288	0	0	0	0	489
289	0	0	0	0	490
290	0	0	0	0	492
291	0	0	0	0	494
292	0	0	0	0	495
293	0	0	0	0	497
294	0	0	0	0	498
295	0	0	0	0	500
296	0	0	0	0	501
297	0	0	0	0	503
298	0	0	0	0	505
299	0	0	0	0	506
300	0	0	0	0	508
301	0	0	0	0	509
302	0	0	0	0	511
303	0	0	0	0	512
304	0	0	0	0	513
305	0	0	0	0	515
306	0	0	0	0	516
307	0	0	0	0	517
308	0	0	0	0	518
309	0	0	0	0	519
310	0	0	0	0	520
311	0	0	0	0	521
312	0	0	0	0	522
313	0	0	0	0	522
314	0	0	0	0	540
315	0	0	0	0	513
316	0	0	0	0	517
317	0	0	0	0	511
318	0	0	0	0	507
319	0	0	0	0	514
320	0	0	0	0	513
321	0	0	0	0	501
322	0	0	0	0	509
323	0	0	0	0	453
324	0	0	0	0	543
325	0	0	0	0	534
326	0	0	0	0	520
327	0	0	0	0	528
328	0	0	0	0	528
329	0	0	0	0	520
330	0	0	0	0	519
331	0	0	0	0	518
332	0	0	0	0	517
333	0	0	0	0	516
334	0	0	0	0	514
335	0	0	0	0	513
336	0	0	0	0	512
337	0	0	0	0	510
338	0	0	0	0	509
339	0	0	0	0	507
340	0	0	0	0	506
341	0	0	0	0	504
342	0	0	0	0	503
343	0	0	0	0	501
344	0	0	0	0	499
345	0	0	0	0	498
346	0	0	0	0	496
347	0	0	0	0	495
348	0	0	0	0	493
349	0	0	0	0	492
350	0	0	0	0	490
351	0	0	0	0	489
352	0	0	0	0	487
353	0	0	0	0	486
354	0	0	0	0	484
355	0	0	0	0	483
356	0	0	0	0	482
357	0	0	0	0	481
358	0	0	0	0	480
359	0	0	0	0	479
360	0	0	0	0	478
361	0	0	0	0	477
362	0	0	0	0	477
363	0	0	0	0	476
364	0	0	0	0	476
365	0	0	0	0	475
366	0	0	0	0	475
367	0	0	0	0	475
368	0	0	0	0	475
369	0	0	0	0	475
370	0	0	0	0	475
371	0	0	0	0	475
372	0	0	0	0	475
373	0	0	0	0	476
374	0	0	0	0	476
375	0	0	0	0	477
376	0	0	0	0	477
377	0	0	0	0	478
378	0	0	0	0	479
379	0	0	0	0	510
380	0	0	0	0	497
381	0	0	0	0	484
382	0	0	0	0	494
383	0	0	0	0	482
384	0	0	0	0	474
385	0	0	0	0	492
386	0	0	0	0	510
387	0	0	0	0	479
388	0	0	0	0	477
389	0	0	0	0	485
390	0	0	0	0	517
391	0	0	0	0	531
392	0	0	0	0	506
393	0	0	0	0	513
394	0	0	0	0	486
395	0	0	0	0	523
396	0	0	0	0	517
397	0	0	0	0	489
398	0	0	0	0	465
399	0	0	0	0	480
400	0	0	0	0	494
401	0	0	0	0	539
402	0	0	0	0	550
403	0	0	0	0	504
404	0	0	0	0	506
405	0	0	0	0	523
406	0	0	0	0	518
407	0	0	0	0	541
408	0	0	0	0	507
409	0	0	0	0	564
410	0	0	0	0	549
411	0	0	0	0	559
412	0	0	0	0	551
413	0	0	0	0	501
414	0	0	0	0	574
415	0	0	0	0	565
416	0	0	0	0	420
417	0	0	0	0	535
418	0	0	0	0	515
419	0	0	0	0	533
420	0	0	0	0	555
421	0	0	0	0	481
422	0	0	0	0	530
423	0	0	0	0	530
424	0	0	0	0	523
425	0	0	0	0	507
426	0	0	0	0	531
427	0	0	0	0	525
428	0	0	0	0	519
429	0	0	0	0	518
430	0	0	0	0	517
431	0	0	0	0	516
432	0	0	0	0	515
433	0	0	0	0	513
434	0	0	0	0	512
435	0	0	0	0	511
436	0	0	0	0	509
437	0	0	0	0	508
438	0	0	0	0	506
439	0	0	0	0	505
440	0	0	0	0	503
441	0	0	0	0	501
442	0	0	0	0	500
443	0	0	0	0	498
444	0	0	0	0	497
445	0	0	0	0	495
446	0	0	0	0	493
447	0	0	0	0	492
448	0	0	0	0	490
449	0	0	0	0	489
450	0	0	0	0	488
451	0	0	0	0	486
452	0	0	0	0	485
453	0	0	0	0	484
454	0	0	0	0	482
455	0	0	0	0	481
456	0	0	0	0	480
457	0	0	0	0	479
458	0	0	0	0	478
459	0	0	0	0	478
460	0	0	0	0	477
461	0	0	0	0	474
462	0	0	0	0	525
463	0	0	0	0	486
464	0	0	0	0	586
465	0	0	0	0	444
466	0	0	0	0	461
467	0	0	0	0	473
468	0	0	0	0	428
469	0	0	0	0	509
470	0	0	0	0	505
471	0	0	0	0	476
472	0	0	0	0	458
473	0	0	0	0	476
474	0	0	0	0	477
475	0	0	0	0	478
476	0	0	0	0	479
477	0	0	0	0	480
478	0	0	0	0	481
479	0	0	0	0	482
480	0	0	0	0	483
481	0	0	0	0	484
482	0	0	0	0	485
483	0	0	0	0	487
484	0	0	0	0	488
485	0	0	0	0	490
486	0	0	0	0	491
487	0	0	0	0	493
488	0	0	0	0	494
489	0	0	0	0	496
490	0	0	0	0	497
491	0	0	0	0	499
492	0	0	0	0	501
493	0	0	0	0	502
494	0	0	0	0	504
495	0	0	0	0	505
496	0	0	0	0	507
497	0	0	0	0	508
498	0	0	0	0	510
499	0	0	0	0	511
500	0	0	0	0	513
501	0	0	0	0	514
502	0	0	0	0	515
503	0	0	0	0	516
504	0	0	0	0	518
505	0	0	0	0	519
506	0	0	0	0	520
507	0	0	0	0	521
508	0	0	0	0	521
509	0	0	0	0	522
510	0	0	0	0	523
511	0	0	0	0	523
512	0	0	0	0	524
513	0	0	0	0	524
514	0	0	0	0	524
515	0	0	0	0	524
516	0	0	0	0	524
517	0	0	0	0	524
518	0	0	0	0	524
519	0	0	0	0	524
520	0	0	0	0	524
521	0	0	0	0	523
522	0	0	0	0	523
523	0	0	0	0	522
524	0	0	0	0	521
525	0	0	0	0	520
526	0	0	0	0	519
527	0	0	0	0	518
528	0	0	0	0	517
529	0	0	0	0	516
530	0	0	0	0	515
531	0	0	0	0	514
532	0	0	0	0	512
533	0	0	0	0	511
534	0	0	0	0	510
535	0	0	0	0	508
536	0	0	0	0	507
537	0	0	0	0	505
538	0	0	0	0	503
539	0	0	0	0	502
540	0	0	0	0	500
541	0	0	0	0	499
542	0	0	0	0	497
543	0	0	0	0	495
544	0	0	0	0	494
545	0	0	0	0	492
546	0	0	0	0	491
547	0	0	0	0	489
548	0	0	0	0	488
549	0	0	0	0	486
550	0	0	0	0	485
551	0	0	0	0	484
552	0	0	0	0	483
553	0	0	0	0	482
554	0	0	0	0	480
555	0	0	0	0	479
556	0	0	0	0	479
557	0	0	0	0	478
558	0	0	0	0	477
559	0	0	0	0	476
560	0	0	0	0	476
561	0	0	0	0	475
562	0	0	0	0	475
563	0	0	0	0	475
564	0	0	0	0	443
565	0	0	0	0	470
566	0	0	0	0	458
567	0	0	0	0	475
568	0	0	0	0	476
569	0	0	0	0	478
570	0	0	0	0	437
571	0	0	0	0	483
572	0	0	0	0	584
573	0	0	0	0	510
574	0	0	0	0	495
575	0	0	0	0	487
576	0	0	0	0	498
577	0	0	0	0	476
578	0	0	0	0	485
579	0	0	0	0	491
580	0	0	0	0	496
581	0	0	0	0	501
582	0	0	0	0	482
583	0	0	0	0	481
584	0	0	0	0	508
585	0	0	0	0	466
586	0	0	0	0	514
587	0	0	0	0	492
588	0	0	0	0	497
589	0	0	0	0	490
590	0	0	0	0	500
591	0	0	0	0	518
592	0	0	0	0	513
593	0	0	0	0	511
594	0	0	0	0	508
595	0	0	0	0	490
596	0	0	0	0	499
597	0	0	0	0	507
598	0	0	0	0	518
599	0	0	0	0	515
600	0	0	0	0	527
601	0	0	0	0	522
602	0	0	0	0	518
603	0	0	0	0	539
604	0	0	0	0	542
605	0	0	0	0	511
606	0	0	0	0	541
607	0	0	0	0	541
608	0	0	0	0	528
609	0	0	0	0	532
610	0	0	0	0	550
611	0	0	0	0	510
612	0	0	0	0	552
613	0	0	0	0	508
614	0	0	0	0	527
615	0	0	0	0	530
616	0	0	0	0	511
617	0	0	0	0	522
618	0	0	0	0	544
619	0	0	0	0	523
620	0	0	0	0	513
621	0	0	0	0	508
622	0	0	0	0	520
623	0	0	0	0	499
624	0	0	0	0	506
625	0	0	0	0	535
626	0	0	0	0	532
627	0	0	0	0	515
628	0	0	0	0	510
629	0	0	0	0	515
630	0	0	0	0	538
631	0	0	0	0	516
632	0	0	0	0	520
633	0	0	0	0	506
634	0	0	0	0	508
635	0	0	0	0	512
636	0	0	0	0	505
637	0	0	0	0	482
638	0	0	0	0	501
639	0	0	0	0	499
640	0	0	0	0	497
641	0	0	0	0	496
642	0	0	0	0	494
643	0	0	0	0	493
644	0	0	0	0	491
645	0	0	0	0	490
646	0	0	0	0	488
647	0	0	0	0	487
648	0	0	0	0	486
649	0	0	0	0	484
650	0	0	0	0	483
651	0	0	0	0	482
652	0	0	0	0	481
653	0	0	0	0	480
654	0	0	0	0	479
655	0	0	0	0	478
656	0	0	0	0	477
657	0	0	0	0	476
658	0	0	0	0	476
659	0	0	0	0	475
660	0	0	0	0	475
661	0	0	0	0	475
662	0	0	0	0	475
663	0	0	0	0	475
664	0	0	0	0	475
665	0	0	0	0	475
666	0	0	0	0	475
667	0	0	0	0	475
668	0	0	0	0	476
669	0	0	0	0	476
670	0	0	0	0	477
671	0	0	0	0	477
672	0	0	0	0	478
673	0	0	0	0	479
674	0	0	0	0	480
675	0	0	0	0	481
676	0	0	0	0	482
677	0	0	0	0	484
678	0	0	0	0	485
679	0	0	0	0	486
680	0	0	0	0	487
681	0	0	0	0	489
682	0	0	0	0	490
683	0	0	0	0	492
684	0	0	0	0	493
685	0	0	0	0	495
686	0	0	0	0	497
687	0	0	0	0	498
688	0	0	0	0	500
689	0	0	0	0	501
690	0	0	0	0	503
691	0	0	0	0	505
692	0	0	0	0	506
693	0	0	0	0	508
694	0	0	0	0	509
695	0	0	0	0	511
696	0	0	0	0	512
697	0	0	0	0	513
698	0	0	0	0	515
699	0	0	0	0	516
700	0	0	0	0	517
701	0	0	0	0	518
702	0	0	0	0	519
703	0	0	0	0	520
704	0	0	0	0	521
705	0	0	0	0	522
706	0	0	0	0	522
707	0	0	0	0	523
708	0	0	0	0	524
709	0	0	0	0	524
710	0	0	0	0	524
711	0	0	0	0	524
712	0	0	0	0	524
713	0	0	0	0	524
714	0	0	0	0	524
715	0	0	0	0	524
716	0	0	0	0	524
717	0	0	0	0	523
718	0	0	0	0	526
719	0	0	0	0	550
720	0	0	0	0	517
721	0	0	0	0	523
722	0	0	0	0	535
723	0	0	0	0	527
724	0	0	0	0	512
725	0	0	0	0	532
726	0	0	0	0	501
727	0	0	0	0	511
728	0	0	0	0	500
729	0	0	0	0	522
730	0	0	0	0	531
731	0	0	0	0	442
732	0	0	0	0	434
733	0	0	0	0	505
734	0	0	0	0	515
735	0	0	0	0	520
736	0	0	0	0	493
737	0	0	0	0	551
738	0	0	0	0	520
739	0	0	0	0	528
740	0	0	0	0	518
741	0	0	0	0	492
742	0	0	0	0	539
743	0	0	0	0	471
744	0	0	0	0	468
745	0	0	0	0	502
746	0	0	0	0	509
747	0	0	0	0	491
748	0	0	0	0	363
749	0	0	0	0	447
750	0	0	0	0	477
751	0	0	0	0	478
752	0	0	0	0	489
753	0	0	0	0	490
754	0	0	0	0	537
755	0	0	0	0	489
756	0	0	0	0	464
757	0	0	0	0	413
758	0	0	0	0	421
759	0	0	0	0	496
760	0	0	0	0	516
761	0	0	0	0	535
762	0	0	0	0	442
763	0	0	0	0	439
764	0	0	0	0	450
765	0	0	0	0	574
766	0	0	0	0	503
767	0	0	0	0	524
768	0	0	0	0	504
769	0	0	0	0	470
770	0	0	0	0	505
771	0	0	0	0	521
772	0	0	0	0	447
773	0	0	0	0	480
774	0	0	0	0	554
775	0	0	0	0	517
776	0	0	0	0	464
777	0	0	0	0	454
778	0	0	0	0	495
779	0	0	0	0	484
780	0	0	0	0	499
781	0	0	0	0	467
782	0	0	0	0	494
783	0	0	0	0	496
784	0	0	0	0	477
785	0	0	0	0	501
786	0	0	0	0	517
787	0	0	0	0	498
788	0	0	0	0	537
789	0	0	0	0	517
790	0	0	0	0	501
791	0	0	0	0	485
792	0	0	0	0	499
793	0	0	0	0	488
794	0	0	0	0	490
795	0	0	0	0	521
796	0	0	0	0	507
797	0	0	0	0	479
798	0	0	0	0	519
799	0	0	0	0	527
800	0	0	0	0	549
801	0	0	0	0	542
802	0	0	0	0	530
803	0	0	0	0	499
804	0	0	0	0	499
805	0	0	0	0	534
806	0	0	0	0	527
807	0	0	0	0	527
808	0	0	0	0	524
809	0	0	0	0	524
810	0	0	0	0	524
811	0	0	0	0	524
812	0	0	0	0	524
813	0	0	0	0	524
814	0	0	0	0	524
815	0	0	0	0	535
816	0	0	0	0	510
817	0	0	0	0	502
818	0	0	0	0	532
819	0	0	0	0	514
820	0	0	0	0	503
821	0	0	0	0	508
822	0	0	0	0	504
823	0	0	0	0	519
824	0	0	0	0	523
825	0	0	0	0	526
826	0	0	0	0	525
827	0	0	0	0	522
828	0	0	0	0	508
829	0	0	0	0	501
830	0	0	0	0	489
831	0	0	0	0	520
832	0	0	0	0	502
833	0	0	0	0	498
834	0	0	0	0	516
835	0	0	0	0	489
836	0	0	0	0	509
837	0	0	0	0	500
838	0	0	0	0	482
839	0	0	0	0	494
840	0	0	0	0	492
841	0	0	0	0	490
842	0	0	0	0	489
843	0	0	0	0	488
844	0	0	0	0	486
845	0	0	0	0	485
846	0	0	0	0	484
847	0	0	0	0	482
848	0	0	0	0	481
849	0	0	0	0	480
850	0	0	0	0	479
851	0	0	0	0	478
852	0	0	0	0	478
853	0	0	0	0	477
854	0	0	0	0	476
855	0	0	0	0	476
856	0	0	0	0	475
857	0	0	0	0	475
858	0	0	0	0	475
859	0	0	0	0	475
860	0	0	0	0	439
861	0	0	0	0	485
862	0	0	0	0	484
863	0	0	0	0	507
864	0	0	0	0	457
865	0	0	0	0	459
866	0	0	0	0	458
867	0	0	0	0	448
868	0	0	0	0	394
869	0	0	0	0	509
870	0	0	0	0	506
871	0	0	0	0	432
872	0	0	0	0	468
873	0	0	0	0	459
874	0	0	0	0	462
875	0	0	0	0	417
876	0	0	0	0	467
877	0	0	0	0	507
878	0	0	0	0	571
879	0	0	0	0	504
880	0	0	0	0	505
881	0	0	0	0	481
882	0	0	0	0	507
883	0	0	0	0	552
884	0	0	0	0	513
885	0	0	0	0	489
886	0	0	0	0	494
887	0	0	0	0	489
888	0	0	0	0	509
889	0	0	0	0	465
890	0	0	0	0	501
891	0	0	0	0	505
892	0	0	0	0	488
893	0	0	0	0	525
894	0	0	0	0	497
895	0	0	0	0	519
896	0	0	0	0	559
897	0	0	0	0	493
898	0	0	0	0	516
899	0	0	0	0	513
900	0	0	0	0	511
901	0	0	0	0	533
902	0	0	0	0	539
903	0	0	0	0	534
904	0	0	0	0	512
905	0	0	0	0	561
906	0	0	0	0	497
907	0	0	0	0	509
908	0	0	0	0	527
909	0	0	0	0	526
910	0	0	0	0	532
911	0	0	0	0	548
912	0	0	0	0	522
913	0	0	0	0	525
914	0	0	0	0	514
915	0	0	0	0	532
916	0	0	0	0	517
917	0	0	0	0	516
918	0	0	0	0	529
919	0	0	0	0	519
920	0	0	0	0	538
921	0	0	0	0	537
922	0	0	0	0	660
923	0	0	0	0	536
924	0	0	0	0	556
925	0	0	0	0	548
926	0	0	0	0	535
927	0	0	0	0	498
928	0	0	0	0	536
929	0	0	0	0	478
930	0	0	0	0	496
931	0	0	0	0	485
932	0	0	0	0	505
933	0	0	0	0	587
934	0	0	0	0	429
935	0	0	0	0	523
936	0	0	0	0	435
937	0	0	0	0	476
938	0	0	0	0	533
939	0	0	0	0	493
940	0	0	0	0	449
941	0	0	0	0	461
942	0	0	0	0	512
943	0	0	0	0	458
944	0	0	0	0	492
945	0	0	0	0	484
946	0	0	0	0	457
947	0	0	0	0	561
948	0	0	0	0	503
949	0	0	0	0	403
950	0	0	0	0	485
951	0	0	0	0	452
952	0	0	0	0	508
953	0	0	0	0	476
954	0	0	0	0	475
955	0	0	0	0	475
956	0	0	0	0	475
957	0	0	0	0	475
958	0	0	0	0	475
959	0	0	0	0	475
960	0	0	0	0	475
961	0	0	0	0	475
962	0	0	0	0	475
963	0	0	0	0	476
964	0	0	0	0	476
965	0	0	0	0	477
966	0	0	0	0	478
967	0	0	0	0	478
968	0	0	0	0	479
969	0	0	0	0	480
970	0	0	0	0	481
971	0	0	0	0	483
972	0	0	0	0	484
973	0	0	0	0	485
974	0	0	0	0	486
975	0	0	0	0	488
976	0	0	0	0	489
977	0	0	0	0	491
978	0	0	0	0	492
979	0	0	0	0	494
980	0	0	0	0	495
981	0	0	0	0	497
982	0	0	0	0	499
983	0	0	0	0	500
984	0	0	0	0	502
985	0	0	0	0	503
986	0	0	0	0	505
987	0	0	0	0	506
988	0	0	0	0	508
989	0	0	0	0	509
990	0	0	0	0	511
991	0	0	0	0	512
992	0	0	0	0	514
993	0	0	0	0	515
994	0	0	0	0	516
995	0	0	0	0	517
996	0	0	0	0	518
997	0	0	0	0	519
998	0	0	0	0	520
999	0	0	0	0	521